 Incident particle is a   Muon with M =   105.65839 MeV
 Index =   82:  lead
     Absorber with Z =  82,  A = 207.2(1), density = 11.350          
 Sternheimer coef:  a     k=m_s   x_0    x_1    I[eV]   Cbar  delta0 
                 0.0936  3.1608  0.3776  3.8073  823.0  6.2018 0.14
 ( Restricted energy loss for Tcut = 0.05 MeV
 Table written with (1X, 1P9E10.3,0PF8.4,1pE10.3)          post-Born included in pair prod
 *** Results below 10 MeV are not dependable ***
      T         p     Ionization  brems     pair     photonuc  Radloss    dE/dx   CSDA Range dltterm dE/dx|_R
    [MeV]    [MeV/c]  -----------------------[MeV cm^2/g]------------------------  [g/cm^2]  --[MeV cm^2/g]--
  1.000E+00 1.457E+01 1.890E+00 0.000E+00 0.000E+00 3.871E-05 3.871E-05 3.782E+00 5.269E-03 -0.0015 1.897E+01
  1.200E+00 1.597E+01 1.672E+01 0.000E+00 0.000E+00 3.878E-05 3.878E-05 1.672E+01 1.652E-02 -0.0015 1.671E+01
  1.400E+00 1.726E+01 1.495E+01 0.000E+00 0.000E+00 3.885E-05 3.885E-05 1.495E+01 2.919E-02 -0.0015 1.495E+01
  1.700E+00 1.903E+01 1.300E+01 0.000E+00 0.000E+00 3.896E-05 3.896E-05 1.300E+01 5.079E-02 -0.0015 1.299E+01
  2.000E+00 2.066E+01 1.158E+01 0.000E+00 0.000E+00 3.907E-05 3.907E-05 1.158E+01 7.530E-02 -0.0016 1.158E+01
  2.500E+00 2.312E+01 9.919E+00 0.000E+00 0.000E+00 3.925E-05 3.925E-05 9.919E+00 1.221E-01 -0.0016 9.918E+00
  3.000E+00 2.536E+01 8.749E+00 0.000E+00 0.000E+00 3.943E-05 3.943E-05 8.749E+00 1.760E-01 -0.0016 8.586E+00
  3.500E+00 2.742E+01 7.870E+00 0.000E+00 0.000E+00 3.961E-05 3.961E-05 7.870E+00 2.363E-01 -0.0016 7.588E+00
  4.000E+00 2.935E+01 7.180E+00 0.000E+00 0.000E+00 3.980E-05 3.980E-05 7.180E+00 3.029E-01 -0.0016 6.823E+00
  4.500E+00 3.116E+01 6.620E+00 0.000E+00 0.000E+00 3.998E-05 3.998E-05 6.620E+00 3.755E-01 -0.0016 6.217E+00
  5.000E+00 3.289E+01 6.156E+00 0.000E+00 0.000E+00 4.016E-05 4.016E-05 6.156E+00 4.539E-01 -0.0016 5.723E+00
  5.500E+00 3.453E+01 5.764E+00 0.000E+00 0.000E+00 4.034E-05 4.034E-05 5.764E+00 5.379E-01 -0.0017 5.312E+00
  6.000E+00 3.611E+01 5.428E+00 0.000E+00 0.000E+00 4.052E-05 4.052E-05 5.428E+00 6.273E-01 -0.0017 4.964E+00
  7.000E+00 3.909E+01 4.880E+00 0.000E+00 0.000E+00 4.088E-05 4.088E-05 4.880E+00 8.220E-01 -0.0017 4.405E+00
  8.000E+00 4.189E+01 4.452E+00 0.000E+00 0.000E+00 4.125E-05 4.125E-05 4.452E+00 1.037E+00 -0.0017 3.976E+00
  9.000E+00 4.453E+01 4.107E+00 0.000E+00 0.000E+00 4.161E-05 4.161E-05 4.107E+00 1.271E+00 -0.0018 3.636E+00
  1.000E+01 4.704E+01 3.823E+00 0.000E+00 0.000E+00 4.197E-05 4.197E-05 3.823E+00 1.524E+00 -0.0018 3.358E+00
  1.200E+01 5.177E+01 3.382E+00 0.000E+00 0.000E+00 4.270E-05 4.270E-05 3.382E+00 2.081E+00 -0.0019 2.934E+00
  1.400E+01 5.616E+01 3.054E+00 0.000E+00 0.000E+00 4.342E-05 4.342E-05 3.054E+00 2.705E+00 -0.0019 2.624E+00
  1.700E+01 6.230E+01 2.695E+00 0.000E+00 0.000E+00 4.451E-05 4.451E-05 2.695E+00 3.754E+00 -0.0020 2.288E+00
  2.000E+01 6.802E+01 2.436E+00 0.000E+00 0.000E+00 4.560E-05 4.560E-05 2.436E+00 4.927E+00 -0.0021 2.049E+00
  2.500E+01 7.686E+01 2.134E+00 0.000E+00 0.000E+00 4.742E-05 4.742E-05 2.134E+00 7.128E+00 -0.0023 1.773E+00
  3.000E+01 8.509E+01 1.928E+00 0.000E+00 0.000E+00 4.923E-05 4.923E-05 1.928E+00 9.600E+00 -0.0025 1.586E+00
  3.500E+01 9.285E+01 1.779E+00 0.000E+00 0.000E+00 5.104E-05 5.104E-05 1.779E+00 1.230E+01 -0.0026 1.452E+00
  4.000E+01 1.003E+02 1.666E+00 0.000E+00 0.000E+00 5.286E-05 5.286E-05 1.666E+00 1.521E+01 -0.0028 1.352E+00
  4.500E+01 1.074E+02 1.579E+00 0.000E+00 0.000E+00 5.467E-05 5.467E-05 1.579E+00 1.830E+01 -0.0030 1.273E+00
  5.000E+01 1.143E+02 1.509E+00 0.000E+00 0.000E+00 5.649E-05 5.649E-05 1.509E+00 2.154E+01 -0.0032 1.211E+00
  5.500E+01 1.210E+02 1.453E+00 0.000E+00 0.000E+00 5.830E-05 5.830E-05 1.453E+00 2.492E+01 -0.0035 1.160E+00
  6.000E+01 1.276E+02 1.406E+00 0.000E+00 0.000E+00 6.012E-05 6.012E-05 1.406E+00 2.842E+01 -0.0037 1.118E+00
  7.000E+01 1.403E+02 1.334E+00 0.000E+00 0.000E+00 6.375E-05 6.375E-05 1.335E+00 3.573E+01 -0.0041 1.054E+00
  8.000E+01 1.527E+02 1.283E+00 0.000E+00 0.000E+00 6.738E-05 6.738E-05 1.283E+00 4.338E+01 -0.0046 1.006E+00
  9.000E+01 1.647E+02 1.244E+00 6.397E-06 0.000E+00 7.100E-05 7.740E-05 1.244E+00 5.130E+01 -0.0051 9.703E-01
  1.000E+02 1.764E+02 1.215E+00 1.516E-05 0.000E+00 7.463E-05 8.979E-05 1.215E+00 5.943E+01 -0.0057 9.426E-01
  1.200E+02 1.994E+02 1.176E+00 3.385E-05 0.000E+00 8.189E-05 1.157E-04 1.176E+00 7.619E+01 -0.0068 9.032E-01
  1.400E+02 2.218E+02 1.151E+00 5.401E-05 0.000E+00 8.915E-05 1.432E-04 1.152E+00 9.339E+01 -0.0081 8.774E-01
  1.700E+02 2.546E+02 1.132E+00 8.673E-05 0.000E+00 1.000E-04 1.868E-04 1.132E+00 1.197E+02 -0.0101 8.531E-01
  2.000E+02 2.868E+02 1.124E+00 1.221E-04 0.000E+00 1.109E-04 2.331E-04 1.124E+00 1.463E+02 -0.0114 8.398E-01
  2.261E+02 3.145E+02 1.122E+00 1.864E-04 0.000E+00 1.291E-04 3.155E-04 1.124E+00  Minimum ionization
  2.500E+02 3.396E+02 1.123E+00 1.864E-04 0.000E+00 1.291E-04 3.155E-04 1.124E+00 1.908E+02 -0.0140 8.287E-01
  3.000E+02 3.917E+02 1.130E+00 2.565E-04 0.000E+00 1.472E-04 4.037E-04 1.131E+00 2.352E+02 -0.0168 8.248E-01
  3.500E+02 4.432E+02 1.140E+00 3.317E-04 0.000E+00 1.654E-04 4.971E-04 1.141E+00 2.792E+02 -0.0197 8.245E-01
  4.000E+02 4.945E+02 1.151E+00 4.114E-04 0.000E+00 1.835E-04 5.949E-04 1.152E+00 3.228E+02 -0.0227 8.259E-01
  4.500E+02 5.455E+02 1.163E+00 4.952E-04 0.000E+00 2.016E-04 6.968E-04 1.164E+00 3.660E+02 -0.0256 8.283E-01
  5.000E+02 5.964E+02 1.175E+00 5.827E-04 0.000E+00 2.198E-04 8.024E-04 1.175E+00 4.088E+02 -0.0285 8.313E-01
  5.500E+02 6.471E+02 1.186E+00 6.735E-04 0.000E+00 2.379E-04 9.115E-04 1.187E+00 4.511E+02 -0.0314 8.344E-01
  6.000E+02 6.977E+02 1.197E+00 7.675E-04 0.000E+00 2.561E-04 1.024E-03 1.198E+00 4.930E+02 -0.0341 8.377E-01
  7.000E+02 7.987E+02 1.218E+00 9.641E-04 0.000E+00 2.924E-04 1.257E-03 1.219E+00 5.758E+02 -0.0395 8.441E-01
  8.000E+02 8.995E+02 1.237E+00 1.171E-03 0.000E+00 3.287E-04 1.500E-03 1.238E+00 6.572E+02 -0.0446 8.503E-01
  9.000E+02 1.000E+03 1.254E+00 1.387E-03 0.000E+00 3.650E-04 1.752E-03 1.256E+00 7.374E+02 -0.0494 8.560E-01
  1.000E+03 1.101E+03 1.270E+00 1.611E-03 0.000E+00 4.012E-04 2.012E-03 1.272E+00 8.165E+02 -0.0540 8.613E-01
  1.200E+03 1.301E+03 1.298E+00 2.081E-03 0.000E+00 4.738E-04 2.555E-03 1.301E+00 9.719E+02 -0.0626 8.706E-01
  1.400E+03 1.502E+03 1.322E+00 2.576E-03 0.000E+00 5.464E-04 3.123E-03 1.325E+00 1.124E+03 -0.0705 8.786E-01
  1.700E+03 1.803E+03 1.353E+00 3.359E-03 4.357E-04 6.553E-04 4.450E-03 1.357E+00 1.348E+03 -0.0813 8.886E-01
  2.000E+03 2.103E+03 1.379E+00 4.184E-03 1.042E-03 7.670E-04 5.993E-03 1.385E+00 1.567E+03 -0.0909 8.968E-01
  2.500E+03 2.604E+03 1.414E+00 5.634E-03 2.206E-03 9.640E-04 8.804E-03 1.423E+00 1.923E+03 -0.1051 9.077E-01
  3.000E+03 3.104E+03 1.442E+00 7.163E-03 3.529E-03 1.164E-03 1.186E-02 1.454E+00 2.270E+03 -0.1175 9.162E-01
  3.500E+03 3.604E+03 1.466E+00 8.759E-03 4.986E-03 1.365E-03 1.511E-02 1.481E+00 2.611E+03 -0.1286 9.230E-01
  4.000E+03 4.104E+03 1.486E+00 1.041E-02 6.557E-03 1.569E-03 1.854E-02 1.504E+00 2.946E+03 -0.1385 9.286E-01
  4.500E+03 4.604E+03 1.503E+00 1.212E-02 8.229E-03 1.774E-03 2.212E-02 1.525E+00 3.276E+03 -0.1476 9.334E-01
  5.000E+03 5.105E+03 1.519E+00 1.387E-02 9.996E-03 1.977E-03 2.584E-02 1.545E+00 3.602E+03 -0.1559 9.375E-01
  5.500E+03 5.605E+03 1.533E+00 1.569E-02 1.186E-02 2.165E-03 2.972E-02 1.562E+00 3.923E+03 -0.1636 9.411E-01
  6.000E+03 6.105E+03 1.545E+00 1.756E-02 1.380E-02 2.352E-03 3.371E-02 1.579E+00 4.242E+03 -0.1708 9.442E-01
  7.000E+03 7.105E+03 1.567E+00 2.139E-02 1.789E-02 2.726E-03 4.201E-02 1.609E+00 4.869E+03 -0.1839 9.495E-01
  8.000E+03 8.105E+03 1.585E+00 2.535E-02 2.222E-02 3.098E-03 5.066E-02 1.636E+00 5.486E+03 -0.1955 9.538E-01
  9.000E+03 9.105E+03 1.601E+00 2.941E-02 2.675E-02 3.468E-03 5.964E-02 1.660E+00 6.092E+03 -0.2060 9.574E-01
  1.000E+04 1.011E+04 1.615E+00 3.358E-02 3.146E-02 3.837E-03 6.888E-02 1.683E+00 6.691E+03 -0.2156 9.604E-01
  1.200E+04 1.211E+04 1.638E+00 4.222E-02 4.112E-02 4.554E-03 8.790E-02 1.726E+00 7.864E+03 -0.2326 9.653E-01
  1.400E+04 1.411E+04 1.657E+00 5.116E-02 5.131E-02 5.265E-03 1.077E-01 1.765E+00 9.009E+03 -0.2473 9.692E-01
  1.700E+04 1.711E+04 1.681E+00 6.504E-02 6.740E-02 6.321E-03 1.388E-01 1.819E+00 1.068E+04 -0.2664 9.735E-01
  2.000E+04 2.011E+04 1.700E+00 7.941E-02 8.435E-02 7.367E-03 1.711E-01 1.871E+00 1.231E+04 -0.2827 9.768E-01
  2.500E+04 2.511E+04 1.725E+00 1.042E-01 1.154E-01 9.107E-03 2.287E-01 1.953E+00 1.492E+04 -0.3057 9.809E-01
  3.000E+04 3.011E+04 1.744E+00 1.299E-01 1.483E-01 1.083E-02 2.890E-01 2.033E+00 1.743E+04 -0.3248 9.837E-01
  3.500E+04 3.511E+04 1.760E+00 1.563E-01 1.827E-01 1.254E-02 3.516E-01 2.112E+00 1.985E+04 -0.3413 9.859E-01
  4.000E+04 4.011E+04 1.774E+00 1.834E-01 2.184E-01 1.424E-02 4.161E-01 2.190E+00 2.217E+04 -0.3558 9.876E-01
  4.500E+04 4.511E+04 1.786E+00 2.110E-01 2.553E-01 1.593E-02 4.822E-01 2.268E+00 2.441E+04 -0.3687 9.890E-01
  5.000E+04 5.011E+04 1.796E+00 2.391E-01 2.931E-01 1.761E-02 5.498E-01 2.346E+00 2.658E+04 -0.3804 9.901E-01
  5.500E+04 5.511E+04 1.805E+00 2.674E-01 3.306E-01 1.931E-02 6.174E-01 2.423E+00 2.868E+04 -0.3910 9.910E-01
  6.000E+04 6.011E+04 1.814E+00 2.961E-01 3.689E-01 2.101E-02 6.860E-01 2.500E+00 3.071E+04 -0.4008 9.918E-01
  7.000E+04 7.011E+04 1.828E+00 3.545E-01 4.473E-01 2.439E-02 8.263E-01 2.654E+00 3.459E+04 -0.4182 9.931E-01
  8.000E+04 8.011E+04 1.840E+00 4.141E-01 5.280E-01 2.776E-02 9.699E-01 2.810E+00 3.825E+04 -0.4335 9.940E-01
  9.000E+04 9.011E+04 1.851E+00 4.748E-01 6.107E-01 3.112E-02 1.117E+00 2.967E+00 4.172E+04 -0.4470 9.948E-01
  1.000E+05 1.001E+05 1.860E+00 5.364E-01 6.951E-01 3.447E-02 1.266E+00 3.126E+00 4.500E+04 -0.4592 9.953E-01
  1.200E+05 1.201E+05 1.876E+00 6.605E-01 8.646E-01 4.124E-02 1.566E+00 3.442E+00 5.109E+04 -0.4805 9.962E-01
  1.400E+05 1.401E+05 1.889E+00 7.872E-01 1.039E+00 4.801E-02 1.874E+00 3.763E+00 5.665E+04 -0.4986 9.968E-01
  1.411E+05 1.412E+05 1.890E+00 7.944E-01 1.049E+00 4.839E-02 1.892E+00 3.782E+00  Muon critical energy       
  1.700E+05 1.701E+05 1.906E+00 9.812E-01 1.308E+00 5.812E-02 2.347E+00 4.253E+00 6.414E+04 -0.5216 9.974E-01
  2.000E+05 2.001E+05 1.919E+00 1.179E+00 1.584E+00 6.822E-02 2.831E+00 4.750E+00 7.082E+04 -0.5410 9.977E-01
  2.500E+05 2.501E+05 1.938E+00 1.511E+00 2.033E+00 8.527E-02 3.629E+00 5.567E+00 8.053E+04 -0.5677 9.981E-01
  3.000E+05 3.001E+05 1.953E+00 1.848E+00 2.493E+00 1.023E-01 4.444E+00 6.396E+00 8.891E+04 -0.5897 9.983E-01
  3.500E+05 3.501E+05 1.965E+00 2.192E+00 2.961E+00 1.194E-01 5.272E+00 7.237E+00 9.625E+04 -0.6083 9.984E-01
  4.000E+05 4.001E+05 1.976E+00 2.540E+00 3.435E+00 1.365E-01 6.111E+00 8.088E+00 1.028E+05 -0.6245 9.985E-01
  4.500E+05 4.501E+05 1.986E+00 2.892E+00 3.916E+00 1.535E-01 6.961E+00 8.947E+00 1.087E+05 -0.6388 9.985E-01
  5.000E+05 5.001E+05 1.994E+00 3.247E+00 4.402E+00 1.706E-01 7.820E+00 9.814E+00 1.140E+05 -0.6516 9.985E-01
  5.500E+05 5.501E+05 2.002E+00 3.599E+00 4.878E+00 1.880E-01 8.665E+00 1.067E+01 1.189E+05 -0.6631 9.985E-01
  6.000E+05 6.001E+05 2.009E+00 3.954E+00 5.357E+00 2.055E-01 9.516E+00 1.153E+01 1.234E+05 -0.6737 9.985E-01
  7.000E+05 7.001E+05 2.022E+00 4.669E+00 6.322E+00 2.406E-01 1.123E+01 1.325E+01 1.315E+05 -0.6924 9.985E-01
  8.000E+05 8.001E+05 2.033E+00 5.391E+00 7.298E+00 2.758E-01 1.296E+01 1.500E+01 1.386E+05 -0.7087 9.985E-01
  9.000E+05 9.001E+05 2.043E+00 6.120E+00 8.282E+00 3.111E-01 1.471E+01 1.676E+01 1.449E+05 -0.7230 9.985E-01
  1.000E+06 1.000E+06 2.051E+00 6.855E+00 9.274E+00 3.464E-01 1.648E+01 1.853E+01 1.505E+05 -0.7358 9.985E-01
  1.200E+06 1.200E+06 2.066E+00 8.314E+00 1.124E+01 4.183E-01 1.997E+01 2.203E+01 1.604E+05 -0.7579 9.985E-01
  1.400E+06 1.400E+06 2.079E+00 9.787E+00 1.321E+01 4.906E-01 2.349E+01 2.557E+01 1.688E+05 -0.7767 9.985E-01
  1.700E+06 1.700E+06 2.096E+00 1.202E+01 1.621E+01 5.997E-01 2.882E+01 3.092E+01 1.795E+05 -0.8003 9.985E-01
  2.000E+06 2.000E+06 2.109E+00 1.427E+01 1.922E+01 7.094E-01 3.420E+01 3.631E+01 1.884E+05 -0.8200 9.985E-01
  2.500E+06 2.500E+06 2.128E+00 1.800E+01 2.420E+01 8.960E-01 4.309E+01 4.522E+01 2.008E+05 -0.8471 9.985E-01
  3.000E+06 3.000E+06 2.144E+00 2.175E+01 2.921E+01 1.084E+00 5.204E+01 5.419E+01 2.109E+05 -0.8693 9.985E-01
  3.500E+06 3.500E+06 2.157E+00 2.553E+01 3.425E+01 1.274E+00 6.105E+01 6.320E+01 2.194E+05 -0.8880 9.985E-01
  4.000E+06 4.000E+06 2.169E+00 2.933E+01 3.930E+01 1.465E+00 7.009E+01 7.226E+01 2.268E+05 -0.9042 9.985E-01
  4.500E+06 4.500E+06 2.179E+00 3.314E+01 4.438E+01 1.657E+00 7.918E+01 8.136E+01 2.333E+05 -0.9185 9.985E-01
  5.000E+06 5.000E+06 2.189E+00 3.697E+01 4.947E+01 1.850E+00 8.830E+01 9.048E+01 2.391E+05 -0.9313 9.985E-01
  5.500E+06 5.500E+06 2.197E+00 4.077E+01 5.452E+01 2.046E+00 9.733E+01 9.953E+01 2.444E+05 -0.9429 9.985E-01
  6.000E+06 6.000E+06 2.205E+00 4.457E+01 5.957E+01 2.243E+00 1.064E+02 1.086E+02 2.492E+05 -0.9535 9.985E-01
  7.000E+06 7.000E+06 2.218E+00 5.220E+01 6.971E+01 2.641E+00 1.245E+02 1.268E+02 2.577E+05 -0.9722 9.985E-01
  8.000E+06 8.000E+06 2.230E+00 5.985E+01 7.987E+01 3.041E+00 1.428E+02 1.450E+02 2.651E+05 -0.9885 9.985E-01
  9.000E+06 9.000E+06 2.241E+00 6.753E+01 9.005E+01 3.444E+00 1.610E+02 1.633E+02 2.716E+05 -1.0028 9.985E-01
  1.000E+07 1.000E+07 2.251E+00 7.523E+01 1.003E+02 3.850E+00 1.793E+02 1.816E+02 2.774E+05 -1.0156 9.985E-01
  1.200E+07 1.200E+07 2.267E+00 9.054E+01 1.206E+02 4.676E+00 2.158E+02 2.181E+02 2.874E+05 -1.0377 9.985E-01
  1.400E+07 1.400E+07 2.281E+00 1.059E+02 1.409E+02 5.510E+00 2.523E+02 2.546E+02 2.959E+05 -1.0565 9.985E-01
  1.700E+07 1.700E+07 2.299E+00 1.290E+02 1.715E+02 6.774E+00 3.073E+02 3.096E+02 3.066E+05 -1.0801 9.985E-01
  2.000E+07 2.000E+07 2.315E+00 1.521E+02 2.022E+02 8.052E+00 3.624E+02 3.647E+02 3.155E+05 -1.0998 9.985E-01
  2.500E+07 2.500E+07 2.336E+00 1.906E+02 2.531E+02 1.023E+01 4.540E+02 4.563E+02 3.277E+05 -1.1269 9.985E-01
  3.000E+07 3.000E+07 2.353E+00 2.292E+02 3.041E+02 1.244E+01 5.457E+02 5.481E+02 3.377E+05 -1.1491 9.985E-01
  3.500E+07 3.500E+07 2.368E+00 2.678E+02 3.552E+02 1.467E+01 6.376E+02 6.400E+02 3.461E+05 -1.1678 9.985E-01
  4.000E+07 4.000E+07 2.381E+00 3.064E+02 4.063E+02 1.693E+01 7.297E+02 7.321E+02 3.534E+05 -1.1841 9.985E-01
  4.500E+07 4.500E+07 2.392E+00 3.451E+02 4.575E+02 1.920E+01 8.218E+02 8.242E+02 3.599E+05 -1.1984 9.985E-01
  5.000E+07 5.000E+07 2.402E+00 3.839E+02 5.087E+02 2.150E+01 9.141E+02 9.165E+02 3.656E+05 -1.2112 9.985E-01
  5.500E+07 5.500E+07 2.412E+00 4.225E+02 5.597E+02 2.382E+01 1.006E+03 1.008E+03 3.708E+05 -1.2228 9.985E-01
  6.000E+07 6.000E+07 2.420E+00 4.611E+02 6.108E+02 2.616E+01 1.098E+03 1.101E+03 3.756E+05 -1.2333 9.985E-01
  7.000E+07 7.000E+07 2.436E+00 5.385E+02 7.131E+02 3.089E+01 1.282E+03 1.285E+03 3.840E+05 -1.2521 9.985E-01
  8.000E+07 8.000E+07 2.449E+00 6.159E+02 8.153E+02 3.567E+01 1.467E+03 1.469E+03 3.912E+05 -1.2683 9.985E-01
  9.000E+07 9.000E+07 2.461E+00 6.934E+02 9.176E+02 4.048E+01 1.651E+03 1.654E+03 3.976E+05 -1.2826 9.985E-01
  1.000E+08 1.000E+08 2.471E+00 7.709E+02 1.020E+03 4.534E+01 1.836E+03 1.839E+03 4.034E+05 -1.2954 9.985E-01
  1.200E+08 1.200E+08 2.490E+00 9.250E+02 1.224E+03 5.441E+01 2.203E+03 2.206E+03 4.133E+05 -1.3176 9.985E-01
  1.400E+08 1.400E+08 2.506E+00 1.079E+03 1.428E+03 6.348E+01 2.571E+03 2.573E+03 4.217E+05 -1.3363 9.985E-01
  1.700E+08 1.700E+08 2.526E+00 1.310E+03 1.734E+03 7.708E+01 3.122E+03 3.124E+03 4.322E+05 -1.3599 9.985E-01
  2.000E+08 2.000E+08 2.543E+00 1.542E+03 2.040E+03 9.068E+01 3.672E+03 3.675E+03 4.411E+05 -1.3796 9.985E-01
  2.500E+08 2.500E+08 2.566E+00 1.927E+03 2.550E+03 1.134E+02 4.591E+03 4.593E+03 4.532E+05 -1.4068 9.985E-01
  3.000E+08 3.000E+08 2.585E+00 2.313E+03 3.060E+03 1.360E+02 5.509E+03 5.511E+03 4.632E+05 -1.4289 9.985E-01
  3.500E+08 3.500E+08 2.602E+00 2.698E+03 3.570E+03 1.587E+02 6.427E+03 6.429E+03 4.716E+05 -1.4476 9.985E-01
  4.000E+08 4.000E+08 2.616E+00 3.083E+03 4.080E+03 1.814E+02 7.345E+03 7.347E+03 4.788E+05 -1.4639 9.985E-01
  4.500E+08 4.500E+08 2.629E+00 3.469E+03 4.590E+03 2.040E+02 8.263E+03 8.266E+03 4.852E+05 -1.4782 9.985E-01
  5.000E+08 5.000E+08 2.641E+00 3.854E+03 5.100E+03 2.267E+02 9.181E+03 9.184E+03 4.910E+05 -1.4910 9.985E-01
  5.500E+08 5.500E+08 2.651E+00 4.240E+03 5.610E+03 2.494E+02 1.010E+04 1.010E+04 4.962E+05 -1.5026 9.985E-01
  6.000E+08 6.000E+08 2.661E+00 4.625E+03 6.120E+03 2.720E+02 1.102E+04 1.102E+04 5.009E+05 -1.5131 9.985E-01
  7.000E+08 7.000E+08 2.678E+00 5.396E+03 7.140E+03 3.174E+02 1.285E+04 1.286E+04 5.093E+05 -1.5319 9.985E-01
  8.000E+08 8.000E+08 2.692E+00 6.167E+03 8.160E+03 3.627E+02 1.469E+04 1.469E+04 5.166E+05 -1.5481 9.985E-01
  9.000E+08 9.000E+08 2.706E+00 6.938E+03 9.180E+03 4.081E+02 1.653E+04 1.653E+04 5.230E+05 -1.5624 9.985E-01
  1.000E+09 1.000E+09 2.718E+00 7.709E+03 1.020E+04 4.534E+02 1.836E+04 1.836E+04 5.287E+05 -1.5752 9.985E-01
